Tempo(s)	Deformação(mm)	Força(N)
0.016667 	-0.0001068 	-166.80 
0.51667 	0.00000 	-166.80 
1.0167 	0.00000 	332.91 
1.5167 	0.00010662 	665.83 
2.0167 	0.00021324 	998.74 
2.5167 	0.00031985 	1498.1 
3.0167 	0.00053309 	1997.5 
3.5167 	0.00063971 	2496.9 
4.0167 	0.00074633 	2829.8 
4.5167 	0.00074633 	2996.2 
5.0167 	0.00074633 	2996.2 
5.5167 	0.00074633 	3162.7 
5.9667 	0.00085294 	3828.5 
6.4667 	0.0011728 	4327.9 
6.9000 	0.0013860 	4993.7 
7.4000 	0.0015993 	5493.1 
7.9000 	0.0017059 	5826.0 
8.4000 	0.0018125 	5992.4 
8.8333 	0.0019191 	6658.3 
9.2500 	0.0022390 	7324.1 
9.5500 	0.0023456 	7989.9 
10.000 	0.0025588 	8655.8 
10.500 	0.0027721 	9321.6 
11.000 	0.0029853 	9987.4 
11.433 	0.0031985 	10653 
11.933 	0.0034118 	11153 
12.267 	0.0036250 	11818 
12.767 	0.0038383 	12318 
13.267 	0.0039449 	12817 
13.767 	0.0041581 	13317 
14.217 	0.0042647 	13982 
14.717 	0.0044780 	14482 
15.217 	0.0045846 	14815 
15.717 	0.0046912 	15148 
16.217 	0.0047978 	15647 
16.717 	0.0050111 	16146 
17.117 	0.0051177 	16812 
17.533 	0.0053309 	17478 
18.017 	0.0055441 	18144 
18.517 	0.0057574 	18643 
19.017 	0.0058640 	19143 
19.517 	0.0060772 	19642 
19.983 	0.0061839 	20308 
20.483 	0.0063971 	20807 
20.983 	0.0066103 	21473 
21.483 	0.0067169 	21806 
21.983 	0.0068236 	22305 
22.483 	0.0070368 	22805 
22.983 	0.0071434 	22971 
23.483 	0.0071434 	23137 
23.983 	0.0071434 	23137 
24.483 	0.0071434 	23304 
24.983 	0.0072500 	23304 
25.483 	0.0071434 	23304 
25.983 	0.0071434 	23304 
26.483 	0.0071434 	23304 
26.983 	0.0071434 	23304 
27.483 	0.0072500 	23470 
27.983 	0.0072500 	23304 
28.483 	0.0072500 	23304 
28.983 	0.0071434 	23137 
29.483 	0.0072500 	23304 
29.983 	0.0072500 	23470 
30.483 	0.0072500 	23304 
30.983 	0.0071434 	23304 
31.483 	0.0072500 	23304 
31.983 	0.0071434 	23304 
32.483 	0.0072500 	23304 
32.983 	0.0072500 	23304 
33.483 	0.0071434 	23470 
33.983 	0.0072500 	23304 
34.483 	0.0072500 	23304 
34.983 	0.0072500 	23304 
35.483 	0.0072500 	23304 
35.983 	0.0072500 	23304 
36.483 	0.0072500 	23304 
36.983 	0.0072500 	23304 
37.483 	0.0072500 	23304 
37.983 	0.0071434 	23304 
38.483 	0.0071434 	23304 
38.983 	0.0072500 	23470 
39.483 	0.0071434 	23304 
39.983 	0.0072500 	23304 
40.483 	0.0072500 	23304 
40.983 	0.0072500 	23304 
41.483 	0.0071434 	23304 
41.983 	0.0072500 	23304 
42.483 	0.0072500 	23304 
42.983 	0.0071434 	23470 
43.483 	0.0072500 	23304 
43.983 	0.0072500 	23304 
44.483 	0.0071434 	23304 
44.983 	0.0071434 	23304 
45.483 	0.0072500 	23304 
45.983 	0.0071434 	23304 
46.483 	0.0072500 	23304 
46.983 	0.0071434 	23304 
47.483 	0.0072500 	23304 
47.983 	0.0072500 	23304 
48.483 	0.0072500 	23304 
48.983 	0.0072500 	23304 
49.483 	0.0072500 	23304 
49.983 	0.0072500 	23304 
50.483 	0.0071434 	23304 
50.983 	0.0072500 	23304 
51.483 	0.0071434 	23304 
51.983 	0.0071434 	23304 
52.483 	0.0072500 	23470 
52.983 	0.0071434 	23304 
53.483 	0.0071434 	23304 
53.983 	0.0072500 	23304 
54.483 	0.0071434 	23304 
54.983 	0.0072500 	23304 
55.483 	0.0071434 	23304 
55.983 	0.0072500 	23304 
56.483 	0.0072500 	23304 
56.983 	0.0071434 	23304 
57.483 	0.0072500 	23304 
57.983 	0.0071434 	23304 
58.483 	0.0071434 	23304 
58.983 	0.0072500 	23304 
59.483 	0.0072500 	23304 
59.983 	0.0071434 	23304 
60.483 	0.0072500 	23304 
60.983 	0.0072500 	23304 
61.483 	0.0072500 	23304 
61.983 	0.0071434 	23470 
62.483 	0.0071434 	23304 
62.983 	0.0071434 	23137 
63.483 	0.0071434 	23304 
63.983 	0.0071434 	23304 
64.483 	0.0071434 	23304 
64.983 	0.0072500 	23470 
65.483 	0.0072500 	23304 
65.983 	0.0072500 	23304 
66.483 	0.0071434 	23304 
66.983 	0.0071434 	23304 
67.483 	0.0072500 	23304 
67.983 	0.0071434 	23304 
68.483 	0.0071434 	23304 
68.983 	0.0072500 	23470 
69.483 	0.0072500 	23304 
69.983 	0.0072500 	23304 
70.483 	0.0071434 	23304 
70.983 	0.0071434 	23304 
71.483 	0.0071434 	23304 
71.983 	0.0071434 	23304 
72.483 	0.0071434 	23470 
72.983 	0.0071434 	23304 
73.483 	0.0071434 	23304 
73.983 	0.0071434 	23304 
74.483 	0.0072500 	23304 
74.983 	0.0071434 	23304 
75.483 	0.0072500 	23304 
75.983 	0.0071434 	23304 
76.483 	0.0071434 	23470 
76.983 	0.0072500 	23470 
77.483 	0.0072500 	23304 
77.983 	0.0071434 	23304 
78.483 	0.0072500 	23304 
78.983 	0.0071434 	23304 
79.483 	0.0071434 	23304 
79.983 	0.0071434 	23304 
80.483 	0.0071434 	23304 
80.983 	0.0071434 	23304 
81.483 	0.0071434 	23304 
81.983 	0.0071434 	23137 
82.483 	0.0071434 	23137 
82.983 	0.0071434 	23304 
83.483 	0.0070368 	22638 
83.983 	0.0068236 	22139 
84.467 	0.0067169 	21473 
84.967 	0.0065037 	21140 
85.400 	0.0063971 	20474 
85.900 	0.0062905 	19975 
86.400 	0.0060772 	19642 
86.833 	0.0059706 	18976 
87.333 	0.0058640 	18810 
87.833 	0.0057574 	18310 
88.333 	0.0056508 	17811 
88.833 	0.0055441 	17478 
89.333 	0.0053309 	17145 
89.633 	0.0052243 	16479 
90.133 	0.0050111 	15813 
90.633 	0.0047978 	15314 
91.050 	0.0046912 	14648 
91.550 	0.0044780 	14315 
92.017 	0.0043713 	13649 
92.517 	0.0041581 	13150 
93.017 	0.0039449 	12651 
93.517 	0.0038383 	12151 
94.000 	0.0036250 	11486 
94.500 	0.0035184 	11153 
95.000 	0.0033052 	10487 
95.500 	0.0031985 	10320 
95.817 	0.0030919 	9654.5 
96.317 	0.0028787 	9321.6 
96.817 	0.0027721 	8822.2 
97.300 	0.0025588 	8156.4 
97.800 	0.0024522 	7823.5 
98.300 	0.0022390 	7490.6 
98.583 	0.0021324 	6824.7 
99.083 	0.0020257 	6491.8 
99.583 	0.0018125 	6158.9 
100.07 	0.0017059 	5493.1 
100.57 	0.0015993 	5160.2 
101.07 	0.0013860 	4827.2 
101.57 	0.0012794 	4327.9 
102.07 	0.0010662 	3995.0 
102.57 	0.00095956 	3495.6 
103.07 	0.00085294 	3162.7 
103.57 	0.00063971 	2996.2 
104.07 	0.00063971 	2663.3 
104.57 	0.00063971 	2663.3 
105.07 	0.00074633 	2829.8 
105.57 	0.00063971 	2663.3 
106.07 	0.00063971 	2496.9 
106.57 	0.00063971 	2496.9 
107.07 	0.00063971 	2330.4 
107.57 	0.00063971 	2330.4 
108.07 	0.00063971 	2330.4 
108.57 	0.00063971 	2330.4 
109.07 	0.00063971 	2330.4 
109.57 	0.00063971 	2163.9 
110.07 	0.00053309 	1997.5 
110.57 	0.00053309 	1664.6 
111.07 	0.00042647 	1498.1 
111.57 	0.00042647 	1498.1 
112.07 	0.00042647 	1498.1 
112.57 	0.00031985 	1331.7 
113.07 	0.00031985 	1331.7 
113.57 	0.00031985 	1165.2 
114.07 	0.00031985 	1165.2 
114.57 	0.00021324 	1165.2 
115.07 	0.00031985 	1165.2 
115.57 	0.00031985 	1165.2 
116.07 	0.00021324 	1165.2 
116.57 	0.00031985 	1331.7 
117.07 	0.00031985 	1165.2 
117.57 	0.00021324 	1165.2 
118.07 	0.00031985 	1165.2 
118.57 	0.00021324 	1165.2 
119.07 	0.00031985 	1165.2 
119.57 	0.00031985 	1331.7 
120.07 	0.00021324 	1331.7 
120.57 	0.00031985 	1165.2 
121.07 	0.00031985 	1165.2 
121.57 	0.00031985 	1165.2 
122.07 	0.00031985 	1165.2 
122.57 	0.00031985 	1165.2 
123.07 	0.00021324 	1165.2 
123.57 	0.00031985 	1165.2 
124.07 	0.00031985 	1165.2 
124.57 	0.00031985 	1165.2 
125.07 	0.00021324 	1165.2 
125.57 	0.00031985 	1165.2 
126.07 	0.00031985 	1331.7 
126.57 	0.00031985 	1331.7 
127.07 	0.00031985 	1165.2 
127.57 	0.00021324 	1165.2 
128.07 	0.00031985 	1165.2 
128.57 	0.00031985 	1165.2 
129.07 	0.00031985 	1165.2 
129.57 	0.00021324 	1165.2 
130.07 	0.00031985 	1165.2 
130.57 	0.00021324 	1165.2 
131.07 	0.00031985 	1331.7 
131.57 	0.00031985 	1331.7 
132.07 	0.00021324 	1165.2 
132.57 	0.00031985 	1165.2 
133.07 	0.00031985 	1165.2 
133.57 	0.00021324 	1165.2 
134.07 	0.00021324 	1165.2 
134.57 	0.00021324 	1165.2 
135.07 	0.00031985 	1165.2 
135.57 	0.00021324 	1165.2 
136.07 	0.00031985 	1165.2 
136.57 	0.00021324 	1165.2 
137.07 	0.00021324 	1165.2 
137.57 	0.00031985 	1165.2 
138.07 	0.00021324 	1165.2 
138.57 	0.00031985 	1165.2 
139.07 	0.00021324 	1165.2 
139.57 	0.00031985 	1165.2 
140.07 	0.00031985 	1165.2 
140.57 	0.00021324 	1165.2 
141.07 	0.00031985 	1165.2 
141.57 	0.00021324 	1165.2 
142.07 	0.00021324 	1165.2 
142.57 	0.00021324 	1165.2 
143.07 	0.00031985 	1165.2 
143.57 	0.00021324 	1331.7 
144.07 	0.00021324 	1165.2 
144.57 	0.00021324 	1165.2 
145.07 	0.00021324 	1165.2 
145.57 	0.00021324 	1331.7 
146.07 	0.00021324 	1331.7 
146.57 	0.00021324 	1165.2 
147.07 	0.00021324 	998.74 
147.57 	0.00021324 	1165.2 
148.07 	0.00021324 	1165.2 
148.57 	0.00021324 	1331.7 
149.07 	0.00021324 	1331.7 
149.57 	0.00021324 	1165.2 
150.07 	0.00021324 	998.74 
150.57 	0.00021324 	1165.2 
151.07 	0.00021324 	1331.7 
151.57 	0.00021324 	1331.7 
152.07 	0.00021324 	1165.2 
152.57 	0.00021324 	1165.2 
153.07 	0.00021324 	1165.2 
153.57 	0.00021324 	1165.2 
154.07 	0.00021324 	1331.7 
154.57 	0.00021324 	1165.2 
155.07 	0.00031985 	998.74 
155.57 	0.00021324 	998.74 
156.07 	0.00021324 	1165.2 
156.57 	0.00021324 	1331.7 
157.07 	0.00021324 	1165.2 
157.57 	0.00021324 	1165.2 
158.07 	0.00021324 	1165.2 
158.57 	0.00021324 	998.74 
159.07 	0.00031985 	1165.2 
159.57 	0.00021324 	1165.2 
160.07 	0.00021324 	1165.2 
160.57 	0.00021324 	1165.2 
161.07 	0.00021324 	1165.2 
161.57 	0.00021324 	1165.2 
162.07 	0.00021324 	1331.7 
162.57 	0.00021324 	1165.2 
163.07 	0.00021324 	998.74 
163.57 	0.00031985 	998.74 
164.07 	0.00021324 	1165.2 
164.57 	0.00021324 	1331.7 
165.07 	0.00021324 	1165.2 
165.57 	0.00021324 	1165.2 
166.07 	0.00021324 	1165.2 
166.57 	0.00021324 	1331.7 
167.07 	0.00021324 	1331.7 
167.57 	0.00031985 	1831.0 
168.07 	0.00042647 	2163.9 
168.57 	0.00053309 	2663.3 
169.07 	0.00063971 	2829.8 
169.57 	0.00063971 	2996.2 
170.07 	0.00063971 	2996.2 
170.57 	0.00063971 	3162.7 
170.95 	0.00085294 	3828.5 
171.45 	0.0011728 	4327.9 
171.75 	0.0012794 	4993.7 
172.25 	0.0014927 	5160.2 
172.75 	0.0015993 	5659.5 
173.25 	0.0015993 	5992.4 
173.75 	0.0018125 	6491.8 
174.18 	0.0019191 	7157.6 
174.63 	0.0021324 	7823.5 
175.03 	0.0023456 	8489.3 
175.45 	0.0025588 	9155.1 
175.92 	0.0028787 	9820.9 
176.42 	0.0030919 	10487 
176.85 	0.0033052 	11153 
177.32 	0.0034118 	11818 
177.82 	0.0037316 	12151 
178.20 	0.0038383 	12817 
178.70 	0.0039449 	13317 
179.17 	0.0041581 	13982 
179.67 	0.0042647 	14315 
180.17 	0.0044780 	14815 
180.67 	0.0045846 	15148 
181.17 	0.0046912 	15480 
181.67 	0.0049044 	16146 
182.17 	0.0050111 	16646 
182.52 	0.0052243 	17312 
182.97 	0.0053309 	17977 
183.47 	0.0055441 	18477 
183.95 	0.0057574 	19143 
184.45 	0.0058640 	19475 
184.85 	0.0060772 	20141 
185.35 	0.0062905 	20474 
185.80 	0.0063971 	21140 
186.30 	0.0065037 	21473 
186.80 	0.0066103 	22139 
187.30 	0.0068236 	22638 
187.80 	0.0069302 	22971 
188.30 	0.0070368 	23137 
188.80 	0.0070368 	23304 
189.30 	0.0070368 	23304 
189.80 	0.0070368 	23304 
190.30 	0.0070368 	23304 
190.80 	0.0070368 	23304 
191.30 	0.0070368 	23304 
191.80 	0.0070368 	23137 
192.30 	0.0070368 	23304 
192.80 	0.0070368 	23304 
193.30 	0.0070368 	23304 
193.80 	0.0070368 	23304 
194.30 	0.0070368 	23304 
194.80 	0.0070368 	23304 
195.30 	0.0070368 	23304 
195.80 	0.0070368 	23470 
196.30 	0.0070368 	23304 
196.80 	0.0070368 	23304 
197.30 	0.0070368 	23304 
197.80 	0.0070368 	23137 
198.30 	0.0070368 	23304 
198.80 	0.0071434 	23304 
199.30 	0.0070368 	23304 
199.80 	0.0070368 	23304 
200.30 	0.0070368 	23304 
200.80 	0.0070368 	23304 
201.30 	0.0070368 	23304 
201.80 	0.0070368 	23304 
202.30 	0.0070368 	23304 
202.80 	0.0070368 	23304 
203.30 	0.0070368 	23304 
203.80 	0.0070368 	23304 
204.30 	0.0070368 	23304 
204.80 	0.0071434 	23304 
205.30 	0.0071434 	23470 
205.80 	0.0071434 	23304 
206.30 	0.0070368 	23304 
206.80 	0.0070368 	23137 
207.30 	0.0070368 	23304 
207.80 	0.0070368 	23304 
208.30 	0.0070368 	23304 
208.80 	0.0070368 	23304 
209.30 	0.0070368 	23304 
209.80 	0.0070368 	23304 
210.30 	0.0070368 	23304 
210.80 	0.0070368 	23304 
211.30 	0.0070368 	23304 
211.80 	0.0070368 	23304 
212.30 	0.0070368 	23304 
212.80 	0.0070368 	23304 
213.30 	0.0070368 	23304 
213.80 	0.0070368 	23304 
214.30 	0.0070368 	23304 
214.80 	0.0070368 	23304 
215.30 	0.0070368 	23304 
215.80 	0.0070368 	23470 
216.30 	0.0070368 	23304 
216.80 	0.0070368 	23304 
217.30 	0.0070368 	23304 
217.80 	0.0070368 	23304 
218.30 	0.0070368 	23470 
218.80 	0.0070368 	23304 
219.30 	0.0070368 	23304 
219.80 	0.0070368 	23304 
220.30 	0.0070368 	23137 
220.80 	0.0070368 	23304 
221.30 	0.0070368 	23137 
221.80 	0.0070368 	23304 
222.30 	0.0071434 	23304 
222.80 	0.0071434 	23304 
223.30 	0.0071434 	23304 
223.80 	0.0070368 	23304 
224.30 	0.0070368 	23304 
224.80 	0.0070368 	23304 
225.30 	0.0070368 	23304 
225.80 	0.0070368 	23304 
226.30 	0.0071434 	23304 
226.80 	0.0070368 	23304 
227.30 	0.0071434 	23304 
227.80 	0.0070368 	23304 
228.30 	0.0070368 	23304 
228.80 	0.0070368 	23304 
229.30 	0.0071434 	23304 
229.80 	0.0070368 	23304 
230.30 	0.0070368 	23137 
230.80 	0.0070368 	23137 
231.30 	0.0070368 	23304 
231.80 	0.0070368 	23304 
232.30 	0.0071434 	23304 
232.80 	0.0070368 	23304 
233.30 	0.0070368 	23304 
233.80 	0.0070368 	23304 
234.30 	0.0070368 	23304 
234.80 	0.0070368 	23304 
235.30 	0.0070368 	23304 
235.80 	0.0070368 	23304 
236.30 	0.0070368 	23304 
236.80 	0.0070368 	23304 
237.30 	0.0070368 	23304 
237.80 	0.0070368 	23304 
238.30 	0.0070368 	23304 
238.80 	0.0070368 	23304 
239.30 	0.0070368 	23304 
239.80 	0.0070368 	23304 
240.30 	0.0070368 	23304 
240.80 	0.0070368 	23304 
241.30 	0.0070368 	23304 
241.80 	0.0070368 	23304 
242.30 	0.0070368 	23304 
242.80 	0.0070368 	23304 
243.30 	0.0070368 	23304 
243.80 	0.0070368 	23304 
244.30 	0.0070368 	23304 
244.80 	0.0070368 	23304 
245.30 	0.0070368 	23304 
245.80 	0.0070368 	23304 
246.30 	0.0070368 	23304 
246.80 	0.0070368 	23470 
247.30 	0.0070368 	23304 
247.80 	0.0070368 	23304 
248.30 	0.0069302 	22971 
248.80 	0.0068236 	22472 
249.30 	0.0067169 	21972 
249.80 	0.0065037 	21473 
250.30 	0.0063971 	20974 
250.80 	0.0061839 	20474 
251.30 	0.0060772 	19975 
251.80 	0.0059706 	19475 
252.30 	0.0057574 	18976 
252.80 	0.0056508 	18643 
253.30 	0.0055441 	18144 
253.80 	0.0053309 	17811 
254.30 	0.0053309 	17478 
254.65 	0.0051177 	16812 
255.12 	0.0050111 	16146 
255.57 	0.0047978 	15480 
256.07 	0.0045846 	14981 
256.57 	0.0043713 	14482 
257.07 	0.0042647 	13982 
257.57 	0.0040515 	13317 
258.07 	0.0039449 	12984 
258.47 	0.0037316 	12318 
258.97 	0.0036250 	11985 
259.37 	0.0035184 	11319 
259.87 	0.0033052 	11153 
260.23 	0.0031985 	10487 
260.73 	0.0029853 	10320 
261.05 	0.0029853 	9654.5 
261.55 	0.0027721 	9155.1 
262.05 	0.0026655 	8822.2 
262.55 	0.0024522 	8322.8 
262.93 	0.0023456 	7657.0 
263.43 	0.0021324 	7490.6 
263.72 	0.0020257 	6824.7 
264.22 	0.0019191 	6491.8 
264.72 	0.0018125 	5992.4 
265.22 	0.0015993 	5826.0 
265.72 	0.0014927 	5326.6 
266.22 	0.0012794 	4993.7 
266.72 	0.0011728 	4494.3 
267.22 	0.0010662 	4161.4 
267.72 	0.00085294 	3662.0 
268.22 	0.00074633 	3329.1 
268.72 	0.00063971 	2996.2 
269.22 	0.00053309 	2829.8 
269.72 	0.00053309 	2663.3 
270.22 	0.00053309 	2829.8 
270.72 	0.00053309 	2829.8 
271.22 	0.00053309 	2663.3 
271.72 	0.00053309 	2496.9 
272.22 	0.00053309 	2330.4 
272.72 	0.00053309 	2330.4 
273.22 	0.00063971 	2330.4 
273.72 	0.00053309 	2330.4 
274.22 	0.00053309 	2163.9 
274.72 	0.00053309 	2163.9 
275.22 	0.00042647 	1831.0 
275.72 	0.00031985 	1664.6 
276.22 	0.00031985 	1664.6 
276.72 	0.00031985 	1498.1 
277.22 	0.00021324 	1331.7 
277.72 	0.00021324 	1331.7 
278.22 	0.00021324 	1331.7 
278.72 	0.00021324 	1165.2 
279.22 	0.00021324 	1165.2 
279.72 	0.00021324 	1165.2 
280.22 	0.00010662 	1165.2 
280.72 	0.00021324 	1165.2 
281.22 	0.00021324 	1165.2 
281.72 	0.00021324 	1165.2 
282.22 	0.00010662 	1165.2 
282.72 	0.00021324 	1165.2 
283.22 	0.00010662 	1165.2 
283.72 	0.00010662 	1165.2 
284.22 	0.00021324 	1165.2 
284.72 	0.00010662 	1165.2 
285.22 	0.00010662 	1165.2 
285.72 	0.00010662 	1165.2 
286.22 	0.00021324 	1331.7 
286.72 	0.00021324 	1331.7 
287.22 	0.00010662 	1165.2 
287.72 	0.00010662 	998.74 
288.22 	0.00010662 	1165.2 
288.72 	0.00010662 	1165.2 
289.22 	0.00010662 	1165.2 
289.72 	0.00010662 	1165.2 
290.22 	0.00010662 	1165.2 
290.72 	0.00021324 	1165.2 
291.22 	0.00021324 	1165.2 
291.72 	0.00021324 	1165.2 
292.22 	0.00010662 	1165.2 
292.72 	0.00021324 	1165.2 
293.22 	0.00010662 	1331.7 
293.72 	0.00010662 	1165.2 
294.22 	0.00010662 	1165.2 
294.72 	0.00010662 	1165.2 
295.22 	0.00010662 	1165.2 
295.72 	0.00010662 	1165.2 
296.22 	0.00010662 	1165.2 
296.72 	0.00010662 	1165.2 
297.22 	0.00010662 	1165.2 
297.72 	0.00021324 	1165.2 
298.22 	0.00010662 	1165.2 
298.72 	0.00010662 	998.74 
299.22 	0.00010662 	1165.2 
299.72 	0.00021324 	1165.2 
300.22 	0.00010662 	1165.2 
300.72 	0.00010662 	1165.2 
301.22 	0.00010662 	1165.2 
301.72 	0.00010662 	1165.2 
302.22 	0.00010662 	1165.2 
302.72 	0.00010662 	1165.2 
303.22 	0.00010662 	1165.2 
303.72 	0.00010662 	1165.2 
304.22 	0.00010662 	1165.2 
304.72 	0.00010662 	1331.7 
305.22 	0.00021324 	1165.2 
305.72 	0.00010662 	1165.2 
306.22 	0.00010662 	1165.2 
306.72 	0.00010662 	1165.2 
307.22 	0.00010662 	1165.2 
307.72 	0.00010662 	1165.2 
308.22 	0.00010662 	1331.7 
308.72 	0.00010662 	1165.2 
309.22 	0.00010662 	1165.2 
309.72 	0.00010662 	1165.2 
310.22 	0.00010662 	1165.2 
310.72 	0.00010662 	1165.2 
311.22 	0.00010662 	1165.2 
311.72 	0.00010662 	1165.2 
312.22 	0.00010662 	1165.2 
312.72 	0.00010662 	1331.7 
313.22 	0.00010662 	1165.2 
313.72 	0.00010662 	998.74 
314.22 	0.00010662 	998.74 
314.72 	0.00010662 	1165.2 
315.22 	0.00010662 	1165.2 
315.72 	0.00010662 	1165.2 
316.22 	0.00010662 	998.74 
316.72 	0.00010662 	1165.2 
317.22 	0.00010662 	1165.2 
317.72 	0.00010662 	1331.7 
318.22 	0.00010662 	1165.2 
318.72 	0.00010662 	1165.2 
319.22 	0.00010662 	1165.2 
319.72 	0.00010662 	1165.2 
320.22 	0.00010662 	1165.2 
320.72 	0.00010662 	1165.2 
321.22 	0.00010662 	1165.2 
321.72 	0.00010662 	1331.7 
322.22 	0.00010662 	1165.2 
322.72 	0.00010662 	1165.2 
323.22 	0.00010662 	998.74 
323.72 	0.00010662 	1331.7 
324.22 	0.00010662 	1165.2 
324.72 	0.00010662 	1165.2 
325.22 	0.00010662 	1165.2 
325.72 	0.00010662 	1165.2 
326.22 	0.00010662 	1165.2 
326.72 	0.00010662 	998.74 
327.22 	0.00010662 	1165.2 
327.72 	0.00010662 	1165.2 
328.22 	0.00010662 	1331.7 
328.72 	0.00010662 	1331.7 
329.22 	0.00010662 	1165.2 
329.72 	0.00010662 	1165.2 
330.22 	0.00010662 	1165.2 
330.72 	0.00010662 	1331.7 
331.22 	0.00010662 	1331.7 
331.72 	0.00010662 	998.74 
332.22 	0.00010662 	1165.2 
332.72 	0.00021324 	1664.6 
333.22 	0.00031985 	1997.5 
333.72 	0.00042647 	2330.4 
334.22 	0.00053309 	2829.8 
334.72 	0.00053309 	2996.2 
335.22 	0.00053309 	3162.7 
335.72 	0.00053309 	3162.7 
336.22 	0.00074633 	3495.6 
336.53 	0.00085294 	4161.4 
337.03 	0.0011728 	4660.8 
337.38 	0.0012794 	5326.6 
337.88 	0.0013860 	5659.5 
338.38 	0.0013860 	5659.5 
338.83 	0.0014927 	6325.4 
339.33 	0.0017059 	6658.3 
339.62 	0.0018125 	7324.1 
340.05 	0.0020257 	7989.9 
340.38 	0.0022390 	8655.8 
340.88 	0.0025588 	9155.1 
341.23 	0.0026655 	9820.9 
341.65 	0.0028787 	10487 
342.08 	0.0030919 	11153 
342.55 	0.0033052 	11818 
343.05 	0.0035184 	12318 
343.55 	0.0037316 	12984 
344.05 	0.0038383 	13317 
344.48 	0.0040515 	13982 
344.98 	0.0042647 	14482 
345.48 	0.0043713 	14815 
345.98 	0.0044780 	15148 
346.48 	0.0045846 	15647 
346.98 	0.0047978 	16146 
347.48 	0.0049044 	16646 
347.80 	0.0050111 	17312 
348.27 	0.0052243 	17977 
348.77 	0.0054375 	18477 
349.23 	0.0056508 	19143 
349.73 	0.0057574 	19642 
350.23 	0.0059706 	20141 
350.73 	0.0060772 	20807 
351.23 	0.0062905 	21140 
